"Data Set 1:Time(s)","Data Set 1:Force(N)","Data Set 1:Respiration Rate(bpm)"
0,8.871246337890625,12.354152679443359
0.10000000000000001,9.7603912353515625,
0.20000000000000001,10.4630126953125,
0.29999999999999999,9.85491943359375,
0.40000000000000002,8.9887771606445312,
0.5,8.1507339477539062,
0.59999999999999998,7.4225616455078125,
0.69999999999999996,6.7761459350585938,
0.80000000000000004,6.2549285888671875,
0.90000000000000002,5.8282394409179688,
1,5.5625228881835938,
1.1000000000000001,5.3657913208007812,
1.2,5.209930419921875,
1.3,5.0131988525390625,
1.3999999999999999,4.8445663452148438,
1.5,4.76025390625,
1.6000000000000001,4.7168197631835938,
1.7,4.6912689208984375,
1.8,4.8011322021484375,
1.8999999999999999,5.1946029663085938,
2,5.9202194213867188,
2.1000000000000001,6.85791015625,
2.2000000000000002,7.8134765625,
2.2999999999999998,8.8175888061523438,
2.3999999999999999,9.8140411376953125,
2.5,10.705734252929688,
2.6000000000000001,11.556549072265625,
2.7000000000000002,12.4124755859375,
2.7999999999999998,13.219856262207031,
2.8999999999999999,13.960807800292969,
3,14.476921081542969,
3.1000000000000001,14.660881042480469,
3.2000000000000002,14.699203491210938,
3.2999999999999998,14.67620849609375,
3.3999999999999999,14.471809387207031,
3.5,14.075782775878906,
3.6000000000000001,13.559669494628906,
3.7000000000000002,12.974578857421875,
3.7999999999999998,12.213188171386719,
3.8999999999999999,10.692962646484375,
4,8.54931640625,
4.0999999999999996,7.0623092651367188,
4.2000000000000002,5.8026962280273438,
4.2999999999999998,5.1205062866210938,
4.4000000000000004,4.8113555908203125,
4.5,4.5865097045898438,
4.5999999999999996,4.4229965209960938,
4.7000000000000002,4.2850189208984375,
4.7999999999999998,4.15216064453125,
4.9000000000000004,4.0806198120117188,
5,4.0652923583984375,
5.0999999999999996,4.0652923583984375,
5.2000000000000002,4.0831756591796875,
5.2999999999999998,4.0985107421875,
5.4000000000000004,4.2058181762695312,
5.5,4.6938247680664062,
5.5999999999999996,5.5625228881835938,
5.7000000000000002,6.6151809692382812,
5.7999999999999998,7.7470474243164062,
5.9000000000000004,8.9606704711914062,
6,10.189628601074219,
6.0999999999999996,11.43902587890625,
6.2000000000000002,12.706298828125,
6.2999999999999998,13.835609436035156,
6.4000000000000004,14.89593505859375,
6.5,15.744194030761719,
6.5999999999999996,16.099342346191406,
6.7000000000000002,16.158103942871094,
6.7999999999999998,16.209205627441406,
6.9000000000000004,16.173439025878906,
7,15.986923217773438,
7.0999999999999996,15.744194030761719,
7.2000000000000002,15.560234069824219,
7.2999999999999998,15.243415832519531,
7.4000000000000004,14.545906066894531,
7.5,12.969467163085938,
7.5999999999999996,10.506446838378906,
7.7000000000000002,8.1328506469726562,
7.7999999999999998,6.5921859741210938,
7.9000000000000004,5.7490386962890625,
8,5.2533645629882812,
8.0999999999999996,4.9391021728515625,
8.1999999999999993,4.7806930541992188,
8.3000000000000007,4.5992889404296875,
8.4000000000000004,4.3412322998046875,
8.5,4.19049072265625,
8.5999999999999996,4.15216064453125,
8.6999999999999993,4.1368331909179688,
8.8000000000000007,4.1266098022460938,
8.9000000000000004,4.1266098022460938,
9,4.11639404296875,
9.0999999999999996,4.198150634765625,
9.1999999999999993,4.3718948364257812,
9.3000000000000007,4.6146163940429688,
9.4000000000000004,4.96209716796875,
9.5,5.3990020751953125,
9.5999999999999996,5.9636611938476562,
9.6999999999999993,6.61773681640625,
9.8000000000000007,7.2028350830078125,
9.9000000000000004,7.72149658203125,
10,8.2197189331054688,16.483516693115234
10.1,8.8789138793945312,
10.199999999999999,9.45123291015625,
10.300000000000001,9.8268203735351562,
10.4,10.018440246582031,
10.5,10.074653625488281,
10.6,9.9622344970703125,
10.699999999999999,9.7501678466796875,
10.800000000000001,9.2085037231445312,
10.9,8.16351318359375,
11,7.0623092651367188,
11.1,6.129730224609375,
11.199999999999999,5.3836746215820312,
11.300000000000001,5.0055313110351562,
11.4,4.8190155029296875,
11.5,4.5788497924804688,
11.6,4.3259048461914062,
11.699999999999999,4.1036148071289062,
11.800000000000001,3.8736648559570312,
11.9,3.7356948852539062,
12,3.7152557373046875,
12.1,3.7305908203125,
12.199999999999999,3.74847412109375,
12.300000000000001,3.7612457275390625,
12.4,3.7740249633789062,
12.5,3.9119949340820312,
12.6,4.3131256103515625,
12.699999999999999,4.9288864135742188,
12.800000000000001,5.6442794799804688,
12.9,6.4133377075195312,
13,7.225830078125,
13.1,8.0025482177734375,
13.199999999999999,8.7588272094726562,
13.300000000000001,9.589202880859375,
13.4,10.396583557128906,
13.5,10.833488464355469,
13.6,10.986785888671875,
13.699999999999999,11.175857543945312,
13.800000000000001,11.3087158203125,
13.9,11.306159973144531,
14,11.170745849609375,
14.1,10.851371765136719,
14.199999999999999,10.03887939453125,
14.300000000000001,8.7230606079101562,
14.4,7.547760009765625,
14.5,6.755706787109375,
14.6,6.0990753173828125,
14.699999999999999,5.4909820556640625,
14.800000000000001,4.9876480102539062,
14.9,4.5354156494140625,
15,4.2748031616210938,
15.1,4.13427734375,
15.199999999999999,4.0729598999023438,
15.300000000000001,4.014190673828125,
15.4,3.96820068359375,
15.5,3.9349899291992188,
15.6,3.886444091796875,
15.699999999999999,3.9119949340820312,
15.800000000000001,4.11639404296875,
15.9,4.5711822509765625,
16,5.2405929565429688,
16.100000000000001,5.9892044067382812,
16.199999999999999,6.8042526245117188,
16.300000000000001,7.6448440551757812,
16.399999999999999,8.439453125,
16.5,9.2928237915039062,
16.600000000000001,10.2432861328125,
16.699999999999999,10.981674194335938,
16.800000000000001,11.316383361816406,
16.899999999999999,11.336822509765625,
17,11.1630859375,
17.100000000000001,10.869255065917969,
17.199999999999999,10.391471862792969,
17.300000000000001,9.497222900390625,
17.399999999999999,8.2938156127929688,
17.5,7.2028350830078125,
17.600000000000001,6.341796875,
17.699999999999999,5.5676345825195312,
17.800000000000001,4.9314346313476562,
17.899999999999999,4.5456314086914062,
18,4.346343994140625,
18.100000000000001,4.144500732421875,
18.199999999999999,3.9886398315429688,
18.300000000000001,3.8711090087890625,
18.399999999999999,3.7305908203125,
18.5,3.5747299194335938,
18.600000000000001,3.500640869140625,
18.699999999999999,3.500640869140625,
18.800000000000001,3.5415191650390625,
18.899999999999999,3.6897048950195312,
19,4.0601806640625,
19.100000000000001,4.604400634765625,
19.199999999999999,5.174163818359375,
19.300000000000001,5.8716812133789062,
19.399999999999999,6.7352676391601562,
19.5,7.5809707641601562,
19.600000000000001,8.3806838989257812,
19.699999999999999,9.1139755249023438,
19.800000000000001,9.7220611572265625,
19.899999999999999,10.158966064453125,
20,10.363365173339844,17.37870979309082
20.100000000000001,10.411911010742188,
20.199999999999999,10.358261108398438,
20.300000000000001,9.9315719604492188,
20.399999999999999,8.8431396484375,
20.5,7.4889907836914062,
20.600000000000001,6.3162460327148438,
20.699999999999999,5.4347763061523438,
20.800000000000001,4.9135513305664062,
20.899999999999999,4.5788497924804688,
21,4.35400390625,
21.100000000000001,4.1393890380859375,
21.199999999999999,3.9656448364257812,
21.300000000000001,3.7612457275390625,
21.399999999999999,3.5900650024414062,
21.5,3.5389633178710938,
21.600000000000001,3.5440750122070312,
21.699999999999999,3.5594024658203125,
21.800000000000001,3.5696258544921875,
21.899999999999999,3.5594024658203125,
22,3.5849533081054688,
22.100000000000001,3.7867965698242188,
22.199999999999999,4.2313690185546875,
22.300000000000001,4.8573455810546875,
22.399999999999999,5.60595703125,
22.5,6.461883544921875,
22.600000000000001,7.3024749755859375,
22.699999999999999,8.099639892578125,
22.800000000000001,9.0041046142578125,
22.899999999999999,9.8523712158203125,
23,10.376144409179688,
23.100000000000001,10.583099365234375,
23.199999999999999,10.565216064453125,
23.300000000000001,10.368476867675781,
23.399999999999999,9.9801177978515625,
23.5,9.2979354858398438,
23.600000000000001,8.1865081787109375,
23.699999999999999,6.9601058959960938,
23.800000000000001,5.9687652587890625,
23.899999999999999,5.1792755126953125,
24,4.7295913696289062,
24.100000000000001,4.4178848266601562,
24.199999999999999,4.2313690185546875,
24.300000000000001,4.0601806640625,
24.399999999999999,3.91455078125,
24.5,3.720367431640625,
24.600000000000001,3.518524169921875,
24.699999999999999,3.426544189453125,
24.800000000000001,3.426544189453125,
24.899999999999999,3.4827499389648438,
25,3.5312957763671875,
25.100000000000001,3.52618408203125,
25.199999999999999,3.4929733276367188,
25.300000000000001,3.518524169921875,
25.399999999999999,3.6794891357421875,
25.5,4.0755157470703125,
25.600000000000001,4.7653656005859375,
25.699999999999999,5.60595703125,
25.800000000000001,6.5002059936523438,
25.899999999999999,7.5170974731445312,
26,8.393463134765625,
26.100000000000001,9.4205703735351562,
26.199999999999999,10.220291137695312,
26.300000000000001,10.736396789550781,
26.399999999999999,11.040443420410156,
26.5,11.196296691894531,
26.600000000000001,11.145195007324219,
26.699999999999999,10.902473449707031,
26.800000000000001,10.396583557128906,
26.899999999999999,9.3643646240234375,
27,8.1021957397460938,
27.100000000000001,7.1466217041015625,
27.199999999999999,6.4388885498046875,
27.300000000000001,5.8435745239257812,
27.399999999999999,5.358123779296875,
27.5,4.8752288818359375,
27.600000000000001,4.4613189697265625,
27.699999999999999,4.2390289306640625,
27.800000000000001,4.0933990478515625,
27.899999999999999,3.9477615356445312,
28,3.8072357177734375,
28.100000000000001,3.610504150390625,
28.199999999999999,3.4393157958984375,
28.300000000000001,3.3856658935546875,
28.399999999999999,3.3601150512695312,
28.5,3.3371200561523438,
28.600000000000001,3.3268966674804688,
28.699999999999999,3.3473358154296875,
28.800000000000001,3.3779983520507812,
28.899999999999999,3.4878616333007812,
29,3.6948165893554688,
29.100000000000001,4.1036148071289062,
29.199999999999999,4.622283935546875,
29.300000000000001,5.2022705078125,
29.399999999999999,5.8691253662109375,
29.5,6.5743026733398438,
29.600000000000001,7.2002792358398438,
29.699999999999999,7.8339157104492188,
29.800000000000001,8.6080856323242188,
29.899999999999999,9.295379638671875,
30,9.6658554077148438,18.37672233581543
30.100000000000001,9.7246170043945312,
30.199999999999999,9.5227737426757812,
30.300000000000001,9.0705337524414062,
30.399999999999999,8.2963714599609375,
30.5,7.3408050537109375,
30.600000000000001,6.4772109985351562,
30.699999999999999,5.7643661499023438,
30.800000000000001,5.209930419921875,
30.899999999999999,4.7014846801757812,
31,4.2594757080078125,
31.100000000000001,3.9988632202148438,
31.199999999999999,3.8506698608398438,
31.300000000000001,3.7280349731445312,
31.399999999999999,3.6181640625,
31.5,3.5312957763671875,
31.600000000000001,3.4342041015625,
31.699999999999999,3.3268966674804688,
31.800000000000001,3.2987899780273438,
31.899999999999999,3.3268966674804688,
32,3.352447509765625,
32.100000000000001,3.4367599487304688,
32.200000000000003,3.6488265991210938,
32.299999999999997,3.9835357666015625,
32.399999999999999,4.4332122802734375,
32.5,5.0464096069335938,
32.600000000000001,5.7745895385742188,
32.700000000000003,6.5385360717773438,
32.799999999999997,7.2973709106445312,
32.899999999999999,8.061309814453125,
33,8.8048171997070312,
33.100000000000001,9.4180145263671875,
33.200000000000003,9.8063812255859375,
33.299999999999997,9.939239501953125,
33.399999999999999,9.8038253784179688,
33.5,9.3720245361328125,
33.600000000000001,8.5876388549804688,
33.700000000000003,7.565643310546875,
33.799999999999997,6.599853515625,
33.899999999999999,5.8716812133789062,
34,5.3632354736328125,
34.100000000000001,4.9212188720703125,
34.200000000000003,4.530303955078125,
34.299999999999997,4.2569198608398438,
34.399999999999999,3.96820068359375,
34.5,3.684600830078125,
34.600000000000001,3.5568466186523438,
34.700000000000003,3.518524169921875,
34.799999999999997,3.4955291748046875,
34.899999999999999,3.4776458740234375,
35,3.4699783325195312,
35.100000000000001,3.4469833374023438,
35.200000000000003,3.4112091064453125,
35.299999999999997,3.4367599487304688,
35.399999999999999,3.546630859375,
35.5,3.794464111328125,
35.600000000000001,4.2185897827148438,
35.700000000000003,4.7755813598632812,
35.799999999999997,5.3913345336914062,
35.899999999999999,6.0326461791992188,
36,6.8093643188476562,
36.100000000000001,7.6703948974609375,
36.200000000000003,8.4445648193359375,
36.299999999999997,9.037322998046875,
36.399999999999999,9.4026870727539062,
36.5,9.571319580078125,
36.600000000000001,9.5304412841796875,
36.700000000000003,9.3081512451171875,
36.799999999999997,8.9683380126953125,
36.899999999999999,8.411346435546875,
37,7.6831741333007812,
37.100000000000001,7.0163192749023438,
37.200000000000003,6.4567718505859375,
37.299999999999997,5.8844528198242188,
37.399999999999999,5.301910400390625,
37.5,4.8624496459960938,
37.600000000000001,4.566070556640625,
37.700000000000003,4.3310089111328125,
37.799999999999997,4.1419448852539062,
37.899999999999999,4.0167465209960938,
38,3.8711090087890625,
38.100000000000001,3.6616058349609375,
38.200000000000003,3.4725341796875,
38.299999999999997,3.4061050415039062,
38.399999999999999,3.3958816528320312,
38.5,3.3984375,
38.600000000000001,3.4112091064453125,
38.700000000000003,3.4571990966796875,
38.799999999999997,3.56451416015625,
38.899999999999999,3.7178115844726562,
39,3.9477615356445312,
39.100000000000001,4.3233489990234375,
39.200000000000003,4.7755813598632812,
39.299999999999997,5.2763595581054688,
39.399999999999999,5.8563461303710938,
39.5,6.5155410766601562,
39.600000000000001,7.197723388671875,
39.700000000000003,7.8032608032226562,
39.799999999999997,8.34747314453125,
39.899999999999999,8.8099288940429688,
40,9.4180145263671875,18.430034637451172
40.100000000000001,9.85491943359375,
40.200000000000003,9.9801177978515625,
40.299999999999997,9.8906936645507812,
40.399999999999999,9.6837387084960938,
40.5,9.349029541015625,
40.600000000000001,8.697509765625,
40.700000000000003,7.7266082763671875,
40.799999999999997,6.7914810180664062,
40.899999999999999,6.0479736328125,
41,5.4526596069335938,
41.100000000000001,4.9672088623046875,
41.200000000000003,4.5149765014648438,
41.299999999999997,4.1649398803710938,
41.399999999999999,3.986083984375,
41.5,3.8889999389648438,
41.600000000000001,3.8097915649414062,
41.700000000000003,3.720367431640625,
41.799999999999997,3.656494140625,
41.899999999999999,3.6079483032226562,
42,3.5057449340820312,
42.100000000000001,3.408660888671875,
42.200000000000003,3.3677749633789062,
42.299999999999997,3.334564208984375,
42.399999999999999,3.3294525146484375,
42.5,3.3831100463867188,
42.600000000000001,3.5338516235351562,
42.700000000000003,3.766357421875,
42.799999999999997,4.088287353515625,
42.899999999999999,4.4587631225585938,
43,5.0131988525390625,
43.100000000000001,5.6008453369140625,
43.200000000000003,6.17572021484375,
43.299999999999997,6.755706787109375,
43.399999999999999,7.3382492065429688,
43.5,7.8390274047851562,
43.600000000000001,8.209503173828125,
43.700000000000003,8.559539794921875,
43.799999999999997,8.9325637817382812,
43.899999999999999,9.17529296875,
44,9.2187271118164062,
44.100000000000001,9.0909805297851562,
44.200000000000003,8.82525634765625,
44.299999999999997,8.38323974609375,
44.399999999999999,7.7342758178710938,
44.5,7.0444259643554688,
44.600000000000001,6.4363327026367188,
44.700000000000003,5.9125595092773438,
44.799999999999997,5.4194412231445312,
44.899999999999999,4.8854446411132812,
45,4.438323974609375,
45.100000000000001,4.1853790283203125,
45.200000000000003,4.0244140625,
45.299999999999997,3.868560791015625,
45.399999999999999,3.7280349731445312,
45.5,3.6207199096679688,
45.600000000000001,3.4571990966796875,
45.700000000000003,3.2809066772460938,
45.799999999999997,3.2093658447265625,
45.899999999999999,3.204254150390625,
46,3.2195892333984375,
46.100000000000001,3.2451400756835938,
46.200000000000003,3.2987899780273438,
46.299999999999997,3.4342041015625,
46.399999999999999,3.6437149047851562,
46.5,3.9707565307617188,
46.600000000000001,4.4613189697265625,
46.700000000000003,5.0234146118164062,
46.799999999999997,5.6212844848632812,
46.899999999999999,6.295806884765625,
47,7.0342025756835938,
47.100000000000001,7.7112808227539062,
47.200000000000003,8.2759323120117188,
47.299999999999997,8.7818222045898438,
47.399999999999999,9.26727294921875,
47.5,9.6403045654296875,
47.600000000000001,9.7680511474609375,
47.700000000000003,9.6045303344726562,
47.799999999999997,9.165069580078125,
47.899999999999999,8.4803314208984375,
48,7.6729507446289062,
48.100000000000001,6.9779891967773438,
48.200000000000003,6.4210052490234375,
48.299999999999997,5.8793411254882812,
48.399999999999999,5.3708953857421875,
48.5,4.9416580200195312,
48.600000000000001,4.5277481079101562,
48.700000000000003,4.1266098022460938,
48.799999999999997,3.8634490966796875,
48.899999999999999,3.7612457275390625,
49,3.6718215942382812,
49.100000000000001,3.592620849609375,
49.200000000000003,3.5210800170898438,
49.299999999999997,3.45465087890625,
49.399999999999999,3.3779983520507812,
49.5,3.3090133666992188,
49.600000000000001,3.3243408203125,
49.700000000000003,3.4214324951171875,
49.799999999999997,3.610504150390625,
49.899999999999999,3.9273223876953125,
50,4.3591156005859375,17.582416534423828
50.100000000000001,4.8190155029296875,
50.200000000000003,5.2635879516601562,
50.299999999999997,5.8052444458007812,
50.399999999999999,6.4669952392578125,
50.5,7.105743408203125,
50.600000000000001,7.675506591796875,
50.700000000000003,8.2018356323242188,
50.799999999999997,8.5978622436523438,
50.899999999999999,8.78948974609375,
51,8.7741546630859375,
51.100000000000001,8.5365447998046875,
51.200000000000003,8.05364990234375,
51.299999999999997,7.3689041137695312,
51.399999999999999,6.6892776489257812,
51.5,6.0914077758789062,
51.600000000000001,5.5165328979492188,
51.700000000000003,4.9978713989257812,
51.799999999999997,4.6248397827148438,
51.899999999999999,4.4229965209960938,
52,4.2134857177734375,
52.100000000000001,4.0499649047851562,
52.200000000000003,3.904327392578125,
52.299999999999997,3.6769332885742188,
52.399999999999999,3.4495391845703125,
52.5,3.352447509765625,
52.600000000000001,3.3243408203125,
52.700000000000003,3.3217849731445312,
52.799999999999997,3.3217849731445312,
52.899999999999999,3.316680908203125,
53,3.2911300659179688,
53.100000000000001,3.3115692138671875,
53.200000000000003,3.4955291748046875,
53.299999999999997,3.876220703125,
53.399999999999999,4.41021728515625,
53.5,5.03619384765625,
53.600000000000001,5.7362594604492188,
53.700000000000003,6.489990234375,
53.799999999999997,7.27947998046875,
53.899999999999999,8.1379623413085938,
54,8.9325637817382812,
54.100000000000001,9.4103546142578125,
54.200000000000003,9.5585403442382812,
54.299999999999997,9.4205703735351562,
54.399999999999999,9.0424346923828125,
54.5,8.5569839477539062,
54.600000000000001,8.0383148193359375,
54.700000000000003,7.4762191772460938,
54.799999999999997,6.9141159057617188,
54.899999999999999,6.4874343872070312,
55,5.9227752685546875,
55.100000000000001,5.3223495483398438,
55.200000000000003,4.8113555908203125,
55.299999999999997,4.4587631225585938,
55.399999999999999,4.180267333984375,
55.5,3.9426498413085938,
55.600000000000001,3.756134033203125,
55.700000000000003,3.5491790771484375,
55.799999999999997,3.34222412109375,
55.899999999999999,3.242584228515625,
56,3.2144775390625,
56.100000000000001,3.2017059326171875,
56.200000000000003,3.2017059326171875,
56.299999999999997,3.204254150390625,
56.399999999999999,3.19659423828125,
56.5,3.2195892333984375,
56.600000000000001,3.3601150512695312,
56.700000000000003,3.6411590576171875,
56.799999999999997,4.0576248168945312,
56.899999999999999,4.5967330932617188,
